# dimensionless total lensed [l(l+1)/2pi] C_l's
# for l=2 to 2500, i.e. number of multipoles equal to 2499
#
# -> if you prefer output in CAMB/HealPix/LensPix units/order, set 'format' to 'camb' in input file
# -> if you don't want to see such a header, set 'headers' to 'no' in input file
# -> for CMB lensing (phi), these are C_l^phi-phi for the lensing potential.
#    Remember the conversion factors:
#    C_l^dd (deflection) = l(l+1) C_l^phi-phi
#    C_l^gg (shear/convergence) = 1/4 (l(l+1))^2 C_l^phi-phi
#
# 1:l     2:TT                     3:EE                     4:TE                     5:BB                     6:phiphi                 7:TPhi                   8:Ephi               
    2       1.495442757701e-10       7.309265058071e-15       4.815171147319e-13       2.388861098936e-19       8.628903619835e-09       4.854772059825e-10      -2.515854151461e-12 
    3       1.409375663760e-10       1.238839452004e-14       6.068719460973e-13       4.780044257934e-19       5.411291733145e-09       3.469573606896e-10      -2.211507030990e-12 
    4       1.324638935800e-10       1.446592354099e-14       6.277975858640e-13       7.971818794320e-19       3.776588565040e-09       2.639785174601e-10      -1.764116066986e-12 
    5       1.257528905526e-10       1.337973190850e-14       5.879550143860e-13       1.196705636391e-18       2.821984242387e-09       2.093815823481e-10      -1.309529286388e-12 
    6       1.208087563227e-10       1.032478440937e-14       5.173987897292e-13       1.676916086957e-18       2.205212291293e-09       1.709428888989e-10      -8.948468924731e-13 
    7       1.173342215427e-10       6.843838595091e-15       4.365330660129e-13       2.238195563513e-18       1.778233645496e-09       1.425663919772e-10      -5.443860557698e-13 
    8       1.150094177828e-10       4.045255171444e-15       3.576614996871e-13       2.880955838331e-18       1.468351552123e-09       1.208855455019e-10      -2.689334597155e-13 
    9       1.135899919276e-10       2.339962952026e-15       2.880577370497e-13       3.605624896101e-18       1.235838583561e-09       1.038809729356e-10      -7.009986713589e-14 
   10       1.128612984745e-10       1.576066392013e-15       2.317780349338e-13       4.412633502729e-18       1.056623423890e-09       9.029295923473e-11       5.745597617576e-14 
   11       1.126830724020e-10       1.351208675433e-15       1.905546768831e-13       5.302402097910e-18       8.886898906063e-10       7.950622630230e-11       1.233291889388e-13 
   12       1.129466827298e-10       1.294588312731e-15       1.640599037658e-13       6.275328523580e-18       7.765278531158e-10       7.028428724006e-11       1.421600850624e-13 
   13       1.135320780204e-10       1.208007400403e-15       1.505250304317e-13       7.331777064074e-18       6.844563360885e-10       6.274647751616e-11       1.277329342209e-13 
   14       1.143407873744e-10       1.063264028028e-15       1.473981485731e-13       8.472069218268e-18       6.078507053505e-10       5.620930566531e-11       9.279532854547e-14 
   15       1.153792111667e-10       9.202377743646e-16       1.516646917430e-13       9.696476551353e-18       5.433693979536e-10       5.074770250580e-11       4.959311407147e-14 
   16       1.166084602683e-10       8.404031742796e-16       1.602810275202e-13       1.100521588712e-17       4.885455333180e-10       4.611882987264e-11       7.232456318681e-15 
   17       1.179454940874e-10       8.411741240027e-16       1.707677998281e-13       1.239844700435e-17       4.415155600636e-10       4.212235784147e-11      -2.792920784460e-14 
   18       1.193943799396e-10       8.950457234317e-16       1.812583724113e-13       1.387627167107e-17       4.006946032089e-10       3.857272499953e-11      -5.233421618605e-14 
   19       1.209630494015e-10       9.693348471136e-16       1.907730506869e-13       1.543874255207e-17       3.654375327153e-10       3.544036712037e-11      -6.510245635674e-14 
   20       1.225956220186e-10       1.030562380942e-15       1.985685562021e-13       1.708585495409e-17       3.343837626019e-10       3.267209571158e-11      -6.706958946679e-14 
   21       1.243040154134e-10       1.081655447347e-15       2.047244288217e-13       1.881757204086e-17       3.070458399153e-10       3.022366954348e-11      -6.038518296413e-14 
   22       1.260879248099e-10       1.140726894241e-15       2.096934184378e-13       2.063381496997e-17       2.827706842464e-10       2.801369506005e-11      -4.840846217149e-14 
   23       1.279365612730e-10       1.227172458117e-15       2.139233690348e-13       2.253449286618e-17       2.612248154163e-10       2.601111848674e-11      -3.407761841817e-14 
   24       1.298178463143e-10       1.359591117149e-15       2.179345832337e-13       2.451949291179e-17       2.419102439076e-10       2.418236742493e-11      -2.047693857430e-14 
   25       1.317486460436e-10       1.538392512956e-15       2.222217805649e-13       2.658871529343e-17       2.246000770759e-10       2.253679492289e-11      -9.447604745140e-15 
   26       1.337412803632e-10       1.756560534889e-15       2.272302499467e-13       2.874206107613e-17       2.089813634268e-10       2.107676829912e-11      -2.331880243012e-15 
   27       1.357768979101e-10       2.007678386939e-15       2.329801785506e-13       3.097946282784e-17       1.948668566011e-10       1.976940151661e-11       6.620910681081e-16 
   28       1.378198706281e-10       2.285336749549e-15       2.392873901566e-13       3.330087687838e-17       1.820132731131e-10       1.856391200490e-11      -9.525412755297e-17 
   29       1.398799356485e-10       2.589051790035e-15       2.458479687637e-13       3.570631859923e-17       1.703550530190e-10       1.745581868214e-11      -3.801163375740e-15 
   30       1.419713367164e-10       2.920067201213e-15       2.522262581152e-13       3.819584268208e-17       1.597671058524e-10       1.644629617814e-11      -9.226628444545e-15 
   31       1.440979312081e-10       3.279007072939e-15       2.579084667565e-13       4.076954304839e-17       1.500335709671e-10       1.552719255564e-11      -1.492867204533e-14 
   32       1.462626032684e-10       3.663758717274e-15       2.625223729907e-13       4.342757641765e-17       1.411042598740e-10       1.468924338247e-11      -2.002927475617e-14 
   33       1.484586467869e-10       4.070695962348e-15       2.656891992117e-13       4.617015598293e-17       1.329161025376e-10       1.391501124595e-11      -2.370100986693e-14 
   34       1.506731822838e-10       4.496668881869e-15       2.670412797240e-13       4.899754516696e-17       1.253545997441e-10       1.318312041736e-11      -2.518539282473e-14 
   35       1.529128412040e-10       4.944269828437e-15       2.664970758289e-13       5.191003920343e-17       1.183811101351e-10       1.249407441549e-11      -2.459200250784e-14 
   36       1.551854124229e-10       5.418475922028e-15       2.640842839992e-13       5.490798501665e-17       1.119397490673e-10       1.185260200746e-11      -2.238998735357e-14 
   37       1.574932989943e-10       5.924454823474e-15       2.598749110500e-13       5.799176620671e-17       1.059467524552e-10       1.126051875257e-11      -1.915230803828e-14 
   38       1.598369676844e-10       6.464531437118e-15       2.540004483649e-13       6.116171944895e-17       1.003866721802e-10       1.071667294666e-11      -1.535845083586e-14 
   39       1.622114076312e-10       7.040265207749e-15       2.466473241907e-13       6.441819578289e-17       9.524189701601e-11       1.021643311839e-11      -1.154170476534e-14 
   40       1.646043177596e-10       7.653263631922e-15       2.380572329176e-13       6.776158607183e-17       9.046339005489e-11       9.751288893972e-12      -8.351232452003e-15 
   41       1.670017466780e-10       8.304886755273e-15       2.284586091060e-13       7.119228255379e-17       8.598778058539e-11       9.311564785224e-12      -6.389549092633e-15 
   42       1.694088894460e-10       8.995242770377e-15       2.178260267609e-13       7.471054269025e-17       8.180192174076e-11       8.896400423371e-12      -5.644098743886e-15 
   43       1.718348922976e-10       9.723866992483e-15       2.060482134348e-13       7.831658502215e-17       7.789473423908e-11       8.506475632336e-12      -5.882701544423e-15 
   44       1.742868487042e-10       1.048997094870e-14       1.929917157923e-13       8.201062577797e-17       7.423783403130e-11       8.141141976403e-12      -6.802855873552e-15 
   45       1.767694586362e-10       1.129272583052e-14       1.785110359964e-13       8.579284173332e-17       7.079567735123e-11       7.798866052219e-12      -8.072930482470e-15 
   46       1.792844961154e-10       1.213225977955e-14       1.624863013799e-13       8.966324657835e-17       6.756285933724e-11       7.478986469040e-12      -9.481077682260e-15 
   47       1.818307412595e-10       1.300892563553e-14       1.447942240626e-13       9.362177684607e-17       6.453562260160e-11       7.180287910000e-12      -1.082315051786e-14 
   48       1.844037905996e-10       1.392302193043e-14       1.252965427366e-13       9.766832292261e-17       6.170060686992e-11       6.900409315374e-12      -1.185901706910e-14 
   49       1.869957930115e-10       1.487479086615e-14       1.038391479978e-13       1.018027264967e-16       5.903413483014e-11       6.635761807048e-12      -1.231067299612e-14 
   50       1.895986641076e-10       1.586442717506e-14       8.029463893517e-14       1.060247745408e-16       5.650934501786e-11       6.382569134578e-12      -1.195044303579e-14 
   51       1.922153706604e-10       1.689211222837e-14       5.470564023713e-14       1.103341852469e-16       5.412152982629e-11       6.140512371334e-12      -1.089818886458e-14 
   52       1.948512527484e-10       1.795798569050e-14       2.717887497583e-14       1.147306138640e-16       5.186844075882e-11       5.909932657340e-12      -9.401512369434e-15 
   53       1.975107150088e-10       1.906213397130e-14      -2.153725185408e-15       1.192136531837e-16       4.974270581309e-11       5.690766587210e-12      -7.755013864194e-15 
   54       2.001971262605e-10       2.020458871588e-14      -3.313385083654e-14       1.237828308257e-16       4.773148460221e-11       5.482516959159e-12      -6.302644115077e-15 
   55       2.029128613151e-10       2.138534246534e-14      -6.561531375020e-14       1.284376614485e-16       4.582038717289e-11       5.284482698247e-12      -5.357160317958e-15 
   56       2.056596685257e-10       2.260440365396e-14      -9.959342178770e-14       1.331778247837e-16       4.400716056524e-11       5.096582524215e-12      -4.929674765417e-15 
   57       2.084382177264e-10       2.386175262940e-14      -1.351056956294e-13       1.380030270761e-16       4.229079820598e-11       4.918684665029e-12      -4.937040019795e-15 
   58       2.112478732714e-10       2.515732485617e-14      -1.721953847199e-13       1.429129494727e-16       4.066739923208e-11       4.750346873514e-12      -5.277999952906e-15 
   59       2.140865991970e-10       2.649101007447e-14      -2.109118436226e-13       1.479072474492e-16       3.912998973005e-11       4.590797274078e-12      -5.832312055315e-15 
   60       2.169508643851e-10       2.786265145910e-14      -2.513109083739e-13       1.529855502356e-16       3.766834397521e-11       4.438915209416e-12      -6.459869745616e-15 
   61       2.198371318133e-10       2.927198904234e-14      -2.934434335432e-13       1.581475390340e-16       3.627182450585e-11       4.293534852046e-12      -7.029649585151e-15 
   62       2.227469314828e-10       3.071847704556e-14      -3.373170453182e-13       1.633932034834e-16       3.493905169256e-11       4.154479005084e-12      -7.516131229659e-15 
   63       2.256827630553e-10       3.220142386654e-14      -3.829264322663e-13       1.687226420048e-16       3.367009727109e-11       4.021724417347e-12      -7.923060987496e-15 
   64       2.286465685504e-10       3.372004163949e-14      -4.302644277669e-13       1.741359899772e-16       3.246357569930e-11       3.895090759186e-12      -8.255603960582e-15 
   65       2.316396877707e-10       3.527344362549e-14      -4.793220107135e-13       1.796334216643e-16       3.131656118177e-11       3.774231710289e-12      -8.520412675371e-15 
   66       2.346628137259e-10       3.686064160290e-14      -5.300883062162e-13       1.852151521401e-16       3.022450469449e-11       3.658626047471e-12      -8.725695713824e-15 
   67       2.377159480574e-10       3.848054325776e-14      -5.825505863039e-13       1.908814392149e-16       2.918115100946e-11       3.547568732479e-12      -8.881286344380e-15 
   68       2.407988677476e-10       4.013207031603e-14      -6.366942154315e-13       1.966325735217e-16       2.818020950599e-11       3.440368785628e-12      -8.997620559989e-15 
   69       2.439127346995e-10       4.181454656914e-14      -6.925024726083e-13       2.024688421362e-16       2.722094521085e-11       3.337009386621e-12      -9.082277320174e-15 
   70       2.470587337216e-10       4.352738414591e-14      -7.499566943239e-13       2.083905610111e-16       2.630357679475e-11       3.237606131820e-12      -9.142857341550e-15 
   71       2.502375591658e-10       4.526997019725e-14      -8.090363258590e-13       2.143980877580e-16       2.542758558545e-11       3.142208524278e-12      -9.188051671424e-15 
   72       2.534493834284e-10       4.704166737465e-14      -8.697189205755e-13       2.204918232713e-16       2.459167744629e-11       3.050796350182e-12      -9.227682426366e-15 
   73       2.566938254509e-10       4.884181430857e-14      -9.319801392079e-13       2.266722133504e-16       2.379374465475e-11       2.963276055290e-12      -9.272743530778e-15 
   74       2.599699192209e-10       5.066972608691e-14      -9.957937491533e-13       2.329397503237e-16       2.303082778089e-11       2.879477121368e-12      -9.335441455464e-15 
   75       2.632760822728e-10       5.252469473345e-14      -1.061131623763e-12       2.392949746718e-16       2.229907756595e-11       2.799148442627e-12      -9.429235956197e-15 
   76       2.666107597470e-10       5.440582990048e-14      -1.127960841511e-12       2.457383777575e-16       2.159471052050e-11       2.722024882710e-12      -9.564941366268e-15 
   77       2.699745617872e-10       5.631154635053e-14      -1.196234374369e-12       2.522700859518e-16       2.091716116607e-11       2.648048967622e-12      -9.738119639921e-15 
   78       2.733684604910e-10       5.823998344944e-14      -1.265898692234e-12       2.588901215885e-16       2.026643803161e-11       2.577183224113e-12      -9.939451702460e-15 
   79       2.767931315686e-10       6.018915390824e-14      -1.336896453207e-12       2.655984963487e-16       1.964216347159e-11       2.509341436444e-12      -1.015843355312e-14 
   80       2.802489366966e-10       6.215694098494e-14      -1.409166443415e-12       2.723952108563e-16       1.904355592148e-11       2.444386461927e-12      -1.038333622209e-14 
   81       2.837359058718e-10       6.414109568653e-14      -1.482643516832e-12       2.792802542730e-16       1.846941215337e-11       2.382128046481e-12      -1.060116572760e-14 
   82       2.872537197646e-10       6.613923397086e-14      -1.557258535100e-12       2.862536038943e-16       1.791808953148e-11       2.322320640169e-12      -1.079762303288e-14 
   83       2.908016920733e-10       6.814883394853e-14      -1.632938307350e-12       2.933152247442e-16       1.738748826770e-11       2.264661212753e-12      -1.095706400328e-14 
   84       2.943791363541e-10       7.016748504894e-14      -1.709613941124e-12       3.004650845105e-16       1.687556178704e-11       2.208860696816e-12      -1.106574593396e-14 
   85       2.979865750390e-10       7.219368910781e-14      -1.787247617604e-12       3.077032020800e-16       1.638198390514e-11       2.154876710332e-12      -1.112227323265e-14 
   86       3.016246994257e-10       7.422618757032e-14      -1.865810165452e-12       3.150296063448e-16       1.590672678493e-11       2.102715588866e-12      -1.112881804447e-14 
   87       3.052939920024e-10       7.626372275010e-14      -1.945273124356e-12       3.224443214333e-16       1.544954866241e-11       2.052361255179e-12      -1.108800261623e-14 
   88       3.089947152624e-10       7.830503926585e-14      -2.025608826212e-12       3.299473665640e-16       1.500998497797e-11       2.003774272218e-12      -1.100291449002e-14 
   89       3.127269005203e-10       8.034888547794e-14      -2.106790476313e-12       3.375387558981e-16       1.458733950777e-11       1.956890896101e-12      -1.087712169668e-14 
   90       3.164903367273e-10       8.239401492498e-14      -2.188792234530e-12       3.452184983927e-16       1.418067549507e-11       1.911622129098e-12      -1.071468794935e-14 
   91       3.202845592868e-10       8.443918776047e-14      -2.271589296496e-12       3.529865976544e-16       1.378880678156e-11       1.867852772623e-12      -1.052018783694e-14 
   92       3.241088388698e-10       8.648317218933e-14      -2.355157974795e-12       3.608430517919e-16       1.341028893874e-11       1.825440480216e-12      -1.029872201774e-14 
   93       3.279624399460e-10       8.852463595872e-14      -2.439467700106e-12       3.687879703813e-16       1.304376199980e-11       1.784251514110e-12      -1.005544427151e-14 
   94       3.318454651490e-10       9.056179904159e-14      -2.524455472170e-12       3.768219458022e-16       1.268905688322e-11       1.744276223561e-12      -9.794028287799e-15 
   95       3.357581178155e-10       9.259273112980e-14      -2.610047698474e-12       3.849457377390e-16       1.234623975239e-11       1.705529264346e-12      -9.517997300845e-15 
   96       3.397004362034e-10       9.461545685389e-14      -2.696167902568e-12       3.931601624861e-16       1.201527125407e-11       1.668014005449e-12      -9.231200063488e-15 
   97       3.436722860096e-10       9.662795571051e-14      -2.782736694342e-12       4.014660944095e-16       1.169600247607e-11       1.631722085867e-12      -8.937819340062e-15 
   98       3.476733528876e-10       9.862816198980e-14      -2.869671740293e-12       4.098644674065e-16       1.138817090496e-11       1.596632971427e-12      -8.642380399282e-15 
   99       3.517031349660e-10       1.006139647028e-13      -2.956887733797e-12       4.183562763675e-16       1.109139638377e-11       1.562713511586e-12      -8.349759507122e-15 
  100       3.557609353657e-10       1.025832075087e-13      -3.044296365382e-12       4.269425786358e-16       1.080517706975e-11       1.529917496248e-12      -8.065192419705e-15 
  101       3.598458547181e-10       1.045336886426e-13      -3.131806292997e-12       4.356244954689e-16       1.052888539199e-11       1.498185212569e-12      -7.794282876184e-15 
  102       3.639567836829e-10       1.064631608425e-13      -3.219323112283e-12       4.444032134992e-16       1.026176400921e-11       1.467443001769e-12      -7.543011091629e-15 
  103       3.680923954661e-10       1.083693312767e-13      -3.306749326848e-12       4.532799861946e-16       1.000292176744e-11       1.437602815941e-12      -7.317742249912e-15 
  104       3.722514286699e-10       1.102499700919e-13      -3.393990842603e-12       4.622560037207e-16       9.751535726398e-12       1.408582263630e-12      -7.123759630817e-15 
  105       3.764335954731e-10       1.121032529123e-13      -3.480977513961e-12       4.713319793616e-16       9.507497026293e-12       1.380368785085e-12      -6.960620026260e-15 
  106       3.806387827552e-10       1.139274646869e-13      -3.567645330632e-12       4.805085096937e-16       9.270845138391e-12       1.352963360272e-12      -6.826183820866e-15 
  107       3.848667684793e-10       1.157208963084e-13      -3.653930182854e-12       4.897862012099e-16       9.041567831030e-12       1.326360578838e-12      -6.718026703613e-15 
