# dimensionless total [l(l+1)/2pi] C_l's
# for l=2 to 3000, i.e. number of multipoles equal to 2999
#
# -> if you prefer output in CAMB/HealPix/LensPix units/order, set 'format' to 'camb' in input file
# -> if you don't want to see such a header, set 'headers' to 'no' in input file
# -> for CMB lensing (phi), these are C_l^phi-phi for the lensing potential.
#    Remember the conversion factors:
#    C_l^dd (deflection) = l(l+1) C_l^phi-phi
#    C_l^gg (shear/convergence) = 1/4 (l(l+1))^2 C_l^phi-phi
#
# 1:l     2:TT                     3:EE                     4:TE                     5:BB                     6:phiphi                 7:TPhi                   8:Ephi               
    2       1.495437885157e-10       7.309026172273e-15       4.815171198840e-13       0.000000000000e+00       8.628903622385e-09       4.854772107008e-10      -2.515854151210e-12 
    3       1.409365941184e-10       1.238791651558e-14       6.068719691835e-13       0.000000000000e+00       5.411291734010e-09       3.469573571418e-10      -2.211507030961e-12 
    4       1.324622771854e-10       1.446512635746e-14       6.277976520792e-13       0.000000000000e+00       3.776588587042e-09       2.639785093092e-10      -1.764116066839e-12 
    5       1.257504764865e-10       1.337853519722e-14       5.879551646408e-13       0.000000000000e+00       2.821984257393e-09       2.093815868733e-10      -1.309529286201e-12 
    6       1.208053901710e-10       1.032310747853e-14       5.173990840334e-13       0.000000000000e+00       2.205212294920e-09       1.709428994904e-10      -8.948468928372e-13 
    7       1.173297564527e-10       6.841600365653e-15       4.365335860051e-13       0.000000000000e+00       1.778233655209e-09       1.425663877618e-10      -5.443860565259e-13 
    8       1.150037061960e-10       4.042374146231e-15       3.576623509690e-13       0.000000000000e+00       1.468351565492e-09       1.208855337032e-10      -2.689334592938e-13 
    9       1.135829004177e-10       2.336357197434e-15       2.880590507168e-13       0.000000000000e+00       1.235838610699e-09       1.038809782984e-10      -7.009986499159e-14 
   10       1.128526861280e-10       1.571653533763e-15       2.317799678648e-13       0.000000000000e+00       1.056623456704e-09       9.029297389192e-11       5.745597737989e-14 
   11       1.126728134220e-10       1.345905907797e-15       1.905574134901e-13       0.000000000000e+00       8.886898956136e-10       7.950622246855e-11       1.233291864649e-13 
   12       1.129346447587e-10       1.288312421455e-15       1.640636549798e-13       0.000000000000e+00       7.765278577367e-10       7.028427198892e-11       1.421600809900e-13 
   13       1.135181519256e-10       1.200674797367e-15       1.505300358148e-13       0.000000000000e+00       6.844563403792e-10       6.274648086671e-11       1.277329338176e-13 
   14       1.143248477835e-10       1.054790799770e-15       1.474046700241e-13       0.000000000000e+00       6.078507093548e-10       5.620932280601e-11       9.279533314708e-14 
   15       1.153611531265e-10       9.105397353535e-16       1.516730194001e-13       0.000000000000e+00       5.433694017044e-10       5.074770085327e-11       4.959311852895e-14 
   16       1.165881664759e-10       8.293959335599e-16       1.602914695411e-13       0.000000000000e+00       4.885455368434e-10       4.611881170111e-11       7.232454869532e-15 
   17       1.179228754826e-10       8.287731575865e-16       1.707806922260e-13       0.000000000000e+00       4.415155633876e-10       4.212235791185e-11      -2.792921475991e-14 
   18       1.193693326173e-10       8.811664414643e-16       1.812740689543e-13       0.000000000000e+00       4.006946063439e-10       3.857273372529e-11      -5.233422114404e-14 
   19       1.209354697483e-10       9.538926679454e-16       1.907919241753e-13       0.000000000000e+00       3.654375356974e-10       3.544036927115e-11      -6.510245453452e-14 
   20       1.225654173617e-10       1.013472814930e-15       1.985909988287e-13       0.000000000000e+00       3.343837654409e-10       3.267209119028e-11      -6.706958266378e-14 
   21       1.242710963663e-10       1.062834165882e-15       2.047508489091e-13       0.000000000000e+00       3.070458426203e-10       3.022366475788e-11      -6.038517696071e-14 
   22       1.260522022439e-10       1.120089802308e-15       2.097242387439e-13       0.000000000000e+00       2.827706868320e-10       2.801369804425e-11      -4.840846412332e-14 
   23       1.278979464995e-10       1.204635720885e-15       2.139590293981e-13       0.000000000000e+00       2.612248178962e-10       2.601112657259e-11      -3.407762673979e-14 
   24       1.297762511726e-10       1.335071219095e-15       2.179755410278e-13       0.000000000000e+00       2.419102462913e-10       2.418236628281e-11      -2.047694175170e-14 
   25       1.317039849670e-10       1.511806332516e-15       2.222685100482e-13       0.000000000000e+00       2.246000793726e-10       2.253678390515e-11      -9.447600294260e-15 
   26       1.336934713660e-10       1.727825396573e-15       2.272832411681e-13       0.000000000000e+00       2.089813656453e-10       2.107676569902e-11      -2.331878760790e-15 
   27       1.357258635059e-10       1.976712021119e-15       2.330399344637e-13       0.000000000000e+00       1.948668587463e-10       1.976941659417e-11       6.620856388696e-16 
   28       1.377655368517e-10       2.252057302881e-15       2.393544257567e-13       0.000000000000e+00       1.820132751843e-10       1.856393684986e-11      -9.525875264136e-17 
   29       1.398222248660e-10       2.553377850883e-15       2.459228145402e-13       0.000000000000e+00       1.703550550163e-10       1.745584263137e-11      -3.801161295613e-15 
   30       1.419101638520e-10       2.881917827569e-15       2.523094612394e-13       0.000000000000e+00       1.597671077779e-10       1.644631075501e-11      -9.226620982608e-15 
   31       1.440332050774e-10       3.238301804212e-15       2.580005906268e-13       0.000000000000e+00       1.500335728251e-10       1.552719258717e-11      -1.492866723932e-14 
   32       1.461942410753e-10       3.620417527142e-15       2.626239942443e-13       0.000000000000e+00       1.411042616687e-10       1.468922841586e-11      -2.002927761755e-14 
   33       1.483865806811e-10       4.024639243693e-15       2.658009063059e-13       0.000000000000e+00       1.329161042723e-10       1.391498694744e-11      -2.370101828809e-14 
   34       1.505973583833e-10       4.447817448062e-15       2.671636709389e-13       0.000000000000e+00       1.253546014212e-10       1.318309784489e-11      -2.518539830159e-14 
   35       1.528332033526e-10       4.892544929779e-15       2.666307530836e-13       0.000000000000e+00       1.183811117569e-10       1.249406182531e-11      -2.459199978015e-14 
   36       1.551018957621e-10       5.363799247490e-15       2.642298491947e-13       0.000000000000e+00       1.119397506361e-10       1.185260141579e-11      -2.238997833902e-14 
   37       1.574058303815e-10       5.866748511448e-15       2.600329620546e-13       0.000000000000e+00       1.059467539735e-10       1.126052603937e-11      -1.915230132305e-14 
   38       1.597454764047e-10       6.403718140130e-15       2.541715704846e-13       0.000000000000e+00       1.003866736508e-10       1.071668375022e-11      -1.535845357110e-14 
   39       1.621158292042e-10       6.976268117905e-15       2.468320842964e-13       0.000000000000e+00       9.524189844200e-11       1.021644482238e-11      -1.154171963974e-14 
   40       1.645045950940e-10       7.586006490140e-15       2.382561744563e-13       0.000000000000e+00       9.046339143956e-11       9.751301105277e-12      -8.351256607308e-15 
   41       1.668978302491e-10       8.234293911727e-15       2.286722451812e-13       0.000000000000e+00       8.598778193199e-11       9.311579171604e-12      -6.389574669396e-15 
   42       1.693007339626e-10       8.921239421850e-15       2.180548272826e-13       0.000000000000e+00       8.180192305239e-11       8.896418303349e-12      -5.644119124668e-15 
   43       1.717224558740e-10       9.646379298119e-15       2.062925958379e-13       0.000000000000e+00       7.789473551852e-11       8.506497134968e-12      -5.882713636482e-15 
   44       1.741700929990e-10       1.040892610038e-14       1.932520368977e-13       0.000000000000e+00       7.423783528075e-11       8.141165796026e-12      -6.802860897367e-15 
   45       1.766483485865e-10       1.120805215889e-14       1.787875832317e-13       0.000000000000e+00       7.079567857228e-11       7.798889571809e-12      -8.072933626546e-15 
   46       1.791589982926e-10       1.204388697431e-14       1.627792827254e-13       0.000000000000e+00       6.756286053140e-11       7.479007154315e-12      -9.481083842178e-15 
   47       1.817008232044e-10       1.291678488956e-14       1.451037582561e-13       0.000000000000e+00       6.453562377043e-11       7.180303788507e-12      -1.082316286010e-14 
   48       1.842694205210e-10       1.382704605752e-14       1.256226493331e-13       0.000000000000e+00       6.170060801495e-11       6.900419113350e-12      -1.185903665324e-14 
   49       1.868569394683e-10       1.477491442303e-14       1.041817370409e-13       0.000000000000e+00       5.903413595275e-11       6.635765094119e-12      -1.231069837582e-14 
   50       1.894552958736e-10       1.576058661717e-14       8.065350374111e-14       0.000000000000e+00       5.650934611929e-11       6.382566314902e-12      -1.195047047867e-14 
   51       1.920674572317e-10       1.678424616800e-14       5.508046141514e-14       0.000000000000e+00       5.412153090779e-11       6.140504146757e-12      -1.089821467564e-14 
   52       1.946987643550e-10       1.784603508768e-14       2.756921558991e-14       0.000000000000e+00       5.186844182166e-11       5.909919888766e-12      -9.401533645284e-15 
   53       1.973536224381e-10       1.894604230291e-14      -1.748427908662e-15       0.000000000000e+00       4.974270685852e-11       5.690750305057e-12      -7.755028666094e-15 
   54       2.000354006738e-10       2.008430215047e-14      -3.271429402421e-14       0.000000000000e+00       4.773148563143e-11       5.482498374061e-12      -6.302651650841e-15 
   55       2.027464745420e-10       2.126080996410e-14      -6.518233211932e-14       0.000000000000e+00       4.582038818699e-11       5.284463152343e-12      -5.357160935802e-15 
   56       2.054885949473e-10       2.247557681626e-14      -9.914797299203e-14       0.000000000000e+00       4.400716156532e-11       5.096563246387e-12      -4.929669308174e-15 
   57       2.082624349536e-10       2.372858574011e-14      -1.346488594441e-13       0.000000000000e+00       4.229079919317e-11       4.918666673901e-12      -4.937029675567e-15 
   58       2.110673623849e-10       2.501977500925e-14      -1.717283673505e-13       0.000000000000e+00       4.066740020751e-11       4.750330933801e-12      -5.277986290141e-15 
   59       2.139013450008e-10       2.634903729908e-14      -2.104359820238e-13       0.000000000000e+00       3.912999069479e-11       4.590783850831e-12      -5.832297059173e-15 
   60       2.167608556715e-10       2.771621884822e-14      -2.508276745775e-13       0.000000000000e+00       3.766834493026e-11       4.438904420196e-12      -6.459855855624e-15 
   61       2.196423612990e-10       2.912106271034e-14      -2.929544347275e-13       0.000000000000e+00       3.627182545211e-11       4.293526501158e-12      -7.029639541536e-15 
   62       2.225473946386e-10       3.056302552226e-14      -3.368240099581e-13       0.000000000000e+00       3.493905263078e-11       4.154472890253e-12      -7.516127292582e-15 
   63       2.254784578147e-10       3.204141793218e-14      -3.824312070813e-13       0.000000000000e+00       3.367009820184e-11       4.021720421681e-12      -7.923064644278e-15 
   64       2.284374953407e-10       3.355545431916e-14      -4.297689785392e-13       0.000000000000e+00       3.246357662292e-11       3.895088864957e-12      -8.255615808399e-15 
   65       2.314258495451e-10       3.510425018049e-14      -4.788284229799e-13       0.000000000000e+00       3.131656209836e-11       3.774232013294e-12      -8.520432299130e-15 
   66       2.344442159978e-10       3.668681951917e-14      -5.295987858346e-13       0.000000000000e+00       3.022450560383e-11       3.658628771983e-12      -8.725721559219e-15 
   67       2.374925989363e-10       3.830207223129e-14      -5.820674598943e-13       0.000000000000e+00       2.918115191099e-11       3.547574246775e-12      -8.881315586129e-15 
   68       2.405707783418e-10       3.994893212493e-14      -6.362199333131e-13       0.000000000000e+00       2.818021039881e-11       3.440377555725e-12      -8.997649305737e-15 
   69       2.436799207046e-10       4.162672458583e-14      -6.920396200961e-13       0.000000000000e+00       2.722094609402e-11       3.337021728770e-12      -9.082301911147e-15 
   70       2.468212160671e-10       4.333486313058e-14      -7.495079961417e-13       0.000000000000e+00       2.630357766736e-11       3.237622126325e-12      -9.142874771053e-15 
   71       2.499953643291e-10       4.507273618945e-14      -8.086046480221e-13       0.000000000000e+00       2.542758644662e-11       3.142227987096e-12      -9.188059686329e-15 
   72       2.532025437594e-10       4.683970757904e-14      -8.693072722147e-13       0.000000000000e+00       2.459167829519e-11       3.050818803512e-12      -9.227679632492e-15 
   73       2.564423795075e-10       4.863511697493e-14      -9.315916743347e-13       0.000000000000e+00       2.379374549057e-11       2.963300697146e-12      -9.272729502152e-15 
   74       2.597139121158e-10       5.045828038425e-14      -9.954317683666e-13       0.000000000000e+00       2.303082860288e-11       2.879502794143e-12      -9.335416847474e-15 
   75       2.630155660311e-10       5.230849061838e-14      -1.060799575897e-12       0.000000000000e+00       2.229907837339e-11       2.799173600651e-12      -9.429202622634e-15 
   76       2.663457930311e-10       5.418485806794e-14      -1.127662331833e-12       0.000000000000e+00       2.159471131274e-11       2.722047678659e-12      -9.564902211245e-15 
   77       2.697052075664e-10       5.608579846219e-14      -1.195973193940e-12       0.000000000000e+00       2.091716194263e-11       2.648067722778e-12      -9.738077610034e-15 
   78       2.730947854096e-10       5.800945212477e-14      -1.265678829875e-12       0.000000000000e+00       2.026643879224e-11       2.577196583265e-12      -9.939409488260e-15 
   79       2.765152059228e-10       5.995383262782e-14      -1.336722101279e-12       0.000000000000e+00       1.964216421621e-11       2.509348410541e-12      -1.015839354408e-14 
   80       2.799668344089e-10       6.191682398985e-14      -1.409042003671e-12       0.000000000000e+00       1.904355665029e-11       2.444386472187e-12      -1.038330045997e-14 
   81       2.834497044631e-10       6.389617787362e-14      -1.482573606346e-12       0.000000000000e+00       1.846941286682e-11       2.382120969934e-12      -1.060113585810e-14 
   82       2.869635003248e-10       6.588951078409e-14      -1.557247992277e-12       0.000000000000e+00       1.791809023027e-11       2.322306856661e-12      -1.079760025580e-14 
   83       2.905075392286e-10       6.789430126626e-14      -1.632992198012e-12       0.000000000000e+00       1.738748895286e-11       2.264641653385e-12      -1.095704902092e-14 
   84       2.940811382765e-10       6.990813910478e-14      -1.709737552226e-12       0.000000000000e+00       1.687556245984e-11       2.208836765945e-12      -1.106573896924e-14 
   85       2.976848235916e-10       7.192952652696e-14      -1.787446411335e-12       0.000000000000e+00       1.638198456681e-11       2.154849800988e-12      -1.112227427284e-14 
   86       3.013192901906e-10       7.395720530230e-14      -1.866089766500e-12       0.000000000000e+00       1.590672743657e-11       2.102686939683e-12      -1.112882689392e-14 
   87       3.049850242654e-10       7.598991796236e-14      -1.945639318892e-12       0.000000000000e+00       1.544954930498e-11       2.052331928541e-12      -1.108801888068e-14 
   88       3.086822919968e-10       7.802640923393e-14      -2.026067560753e-12       0.000000000000e+00       1.500998561227e-11       2.003745131691e-12      -1.100293756051e-14 
   89       3.124111283688e-10       8.006542747232e-14      -2.107347856443e-12       0.000000000000e+00       1.458734013441e-11       1.956862583169e-12      -1.087715073302e-14 
   90       3.161713259826e-10       8.210572609455e-14      -2.189454523493e-12       0.000000000000e+00       1.418067611444e-11       1.911595039198e-12      -1.071472186314e-14 
   91       3.199624238707e-10       8.414606501257e-14      -2.272362913658e-12       0.000000000000e+00       1.378880739384e-11       1.867827030468e-12      -1.052022527424e-14 
   92       3.237836963109e-10       8.618521206647e-14      -2.356049493968e-12       0.000000000000e+00       1.341028954381e-11       1.825415914423e-12      -1.029876134118e-14 
   93       3.276344117334e-10       8.822183414504e-14      -2.440483838384e-12       0.000000000000e+00       1.304376259736e-11       1.784227703295e-12      -1.005548361707e-14 
   94       3.315146782819e-10       9.025414870237e-14      -2.525603048930e-12       0.000000000000e+00       1.268905747298e-11       1.744252770650e-12      -9.794065858945e-15 
   95       3.354247053350e-10       9.228022223533e-14      -2.611333619455e-12       0.000000000000e+00       1.234624033417e-11       1.705505875857e-12      -9.518031460355e-15 
   96       3.393645373664e-10       9.429807584629e-14      -2.697599152658e-12       0.000000000000e+00       1.201527182779e-11       1.667990501940e-12      -9.231229354045e-15 
   97       3.433340464664e-10       9.630568516210e-14      -2.784320330104e-12       0.000000000000e+00       1.169600304177e-11       1.631698412677e-12      -8.937842505456e-15 
   98       3.473329248632e-10       9.830098025310e-14      -2.871414882228e-12       0.000000000000e+00       1.138817146281e-11       1.596609209694e-12      -8.642396406199e-15 
   99       3.513606774452e-10       1.002818455520e-13      -2.958797558352e-12       0.000000000000e+00       1.109139693409e-11       1.562689889569e-12      -8.349767567542e-15 
  100       3.554166142819e-10       1.022461197731e-13      -3.046380096689e-12       0.000000000000e+00       1.080517761297e-11       1.529894400923e-12      -8.065192013892e-15 
  101       3.594998431458e-10       1.041915958309e-13      -3.134071194356e-12       0.000000000000e+00       1.052888592871e-11       1.498163201519e-12      -7.794273776280e-15 
  102       3.636092620341e-10       1.061160207593e-13      -3.221776477387e-12       0.000000000000e+00       1.026176454020e-11       1.467422815360e-12      -7.542993385839e-15 
  103       3.677435516899e-10       1.080170956306e-13      -3.309398470739e-12       0.000000000000e+00       1.000292229362e-11       1.437585389787e-12      -7.317716367293e-15 
  104       3.719014579937e-10       1.098925841514e-13      -3.396843101122e-12       0.000000000000e+00       9.751536248830e-12       1.408568676133e-12      -7.123726308592e-15 
  105       3.760826986883e-10       1.117406553313e-13      -3.484040270521e-12       0.000000000000e+00       9.507497545978e-12       1.380359999578e-12      -6.960580094597e-15 
  106       3.802871657678e-10       1.135595871683e-13      -3.570926018885e-12       0.000000000000e+00       9.270845656209e-12       1.352960145223e-12      -6.826138146531e-15 
  107       3.845146423037e-10       1.153476632051e-13      -3.657436280782e-12       0.000000000000e+00       9.041568347727e-12       1.326363490358e-12      -6.717976189459e-15 
