# Matter power spectrum P(k) at redshift z=0
# for k=1.48588e-07 to 11.3904 h/Mpc,
# number of wavenumbers equal to 581
#    1:k (h/Mpc)              2:P (Mpc/h)^3        
       1.485884101040e-07       8.460684054166e-01 
       1.056470626398e-05       5.113510094697e+01 
       2.346164194085e-05       1.101559517601e+02 
       3.640431706386e-05       1.680795151391e+02 
       4.942764248486e-05       2.255510814064e+02 
       6.256711031075e-05       2.829343583408e+02 
       7.585911115981e-05       3.404993227605e+02 
       8.934126161858e-05       3.984750403043e+02 
       1.030527462634e-04       4.570712002481e+02 
       1.170346786436e-04       5.164891009307e+02 
       1.313304856580e-04       5.769282264597e+02 
       1.459863197602e-04       6.385907489347e+02 
       1.485884101040e-04       6.495089562050e+02 
       1.610515033674e-04       7.016849887791e+02 
       1.765790096639e-04       7.664283783512e+02 
       1.926259836113e-04       8.330495356089e+02 
       2.092543063052e-04       9.017917477987e+02 
       2.265312047190e-04       9.729142789521e+02 
       2.445299071744e-04       1.046695186152e+03 
       2.633303423572e-04       1.123433513117e+03 
       2.830198760744e-04       1.203451502980e+03 
       3.036940748928e-04       1.287096709421e+03 
       3.254574789195e-04       1.374743906553e+03 
       3.484243568818e-04       1.466796675100e+03 
       3.727194049494e-04       1.563688495791e+03 
       3.984783361656e-04       1.665883126193e+03 
       4.258482899582e-04       1.773873992185e+03 
       4.549879715390e-04       1.888182243124e+03 
       4.860674104831e-04       2.009353136194e+03 
       5.192672090452e-04       2.137950325216e+03 
       5.547771380410e-04       2.274547676184e+03 
       5.927939374076e-04       2.419718347916e+03 
       6.335181973787e-04       2.574020979042e+03 
       6.771502426042e-04       2.737983080887e+03 
       7.238850218712e-04       2.912082165874e+03 
       7.739061218604e-04       3.096725436086e+03 
       8.273791673343e-04       3.292229133959e+03 
       8.844450233444e-04       3.498799835018e+03 
       9.452133467501e-04       3.716518123029e+03 
       1.009757107181e-03       3.945327604559e+03 
       1.078108678057e-03       4.185029251307e+03 
       1.150257970235e-03       4.435282904667e+03 
       1.226152855935e-03       4.695614687555e+03 
       1.305701849943e-03       4.965427927660e+03 
       1.388778738337e-03       5.244011294562e+03 
       1.475228631613e-03       5.530566894109e+03 
       1.564874808506e-03       5.824274446575e+03 
       1.657525718141e-03       6.124251179788e+03 
       1.752981601774e-03       6.429599087401e+03 
       1.851040344241e-03       6.739424713842e+03 
       1.951502329638e-03       7.052858502791e+03 
       2.054174224054e-03       7.369068518166e+03 
       2.158871722256e-03       7.687272356976e+03 
       2.265421369537e-03       8.006743083720e+03 
       2.373661608189e-03       8.326813639047e+03 
       2.483443208363e-03       8.646877023571e+03 
       2.594629234771e-03       8.966385612278e+03 
       2.707094681937e-03       9.284848554950e+03 
       2.820725887674e-03       9.601829835705e+03 
       2.935419811245e-03       9.916941838336e+03 
       3.051083241567e-03       1.022984432931e+04 
       3.167631982939e-03       1.054023852336e+04 
       3.284990051310e-03       1.084786480904e+04 
       3.403088902916e-03       1.115249501006e+04 
       3.521866708684e-03       1.145393472406e+04 
       3.641267681674e-03       1.175201324863e+04 
       3.761241460541e-03       1.204658661627e+04 
       3.881742549020e-03       1.233752960437e+04 
       4.002729809554e-03       1.262473872023e+04 
       4.124166008009e-03       1.290812644630e+04 
       4.246017405761e-03       1.318761619125e+04 
       4.368253395187e-03       1.346315071218e+04 
       4.490846174530e-03       1.373468068674e+04 
       4.613770458245e-03       1.400216898367e+04 
       4.737003219153e-03       1.426558588077e+04 
       4.860523458977e-03       1.452489297007e+04 
       4.984312004148e-03       1.478010230913e+04 
       5.108351324050e-03       1.503121966930e+04 
       5.232625369170e-03       1.527821982960e+04 
       5.357119426869e-03       1.552110982853e+04 
       5.481819992775e-03       1.575989200756e+04 
       5.606714655986e-03       1.599464678471e+04 
       5.731791996509e-03       1.622529577990e+04 
       5.857041493533e-03       1.645190352144e+04 
       5.982453443300e-03       1.667448506361e+04 
       6.108018885485e-03       1.689306524422e+04 
       6.233729537119e-03       1.710766497020e+04 
       6.359577733229e-03       1.731832187330e+04 
       6.485556373419e-03       1.752506329294e+04 
       6.611658873761e-03       1.772790985229e+04 
       6.737879123408e-03       1.792691222361e+04 
       6.864211445411e-03       1.812208586437e+04 
       6.990650561296e-03       1.831347142232e+04 
       7.117191558997e-03       1.850108772769e+04 
       7.243829863798e-03       1.868500025996e+04 
       7.370561211962e-03       1.886521863473e+04 
       7.497381626774e-03       1.904178908069e+04 
       7.624287396752e-03       1.921474491304e+04 
       7.751275055812e-03       1.938411737226e+04 
       7.878341365178e-03       1.954994069327e+04 
       8.005483296882e-03       1.971227196996e+04 
       8.132698018682e-03       1.987113078429e+04 
       8.259982880275e-03       2.002656494724e+04 
       8.387335400677e-03       2.017858905785e+04 
       8.514753256646e-03       2.032727343569e+04 
       8.642234272080e-03       2.047262217011e+04 
       8.769776408269e-03       2.061468131228e+04 
       8.897377754940e-03       2.075348660202e+04 
       9.025036522023e-03       2.088908344498e+04 
       9.152751032066e-03       2.102148913404e+04 
       9.280519713250e-03       2.115077129243e+04 
       9.408341092942e-03       2.127693503873e+04 
       9.536213791750e-03       2.140001967492e+04 
       9.664136518030e-03       2.152005619257e+04 
       9.792108062807e-03       2.163709712559e+04 
       9.920127295083e-03       2.175116613972e+04 
       1.004819315749e-02       2.186228021807e+04 
       1.017630466225e-02       2.197050658394e+04 
       1.030446088749e-02       2.207585185686e+04 
       1.043266097370e-02       2.217836300059e+04 
       1.056090412063e-02       2.227807944291e+04 
       1.068918958422e-02       2.237500909420e+04 
       1.081751667389e-02       2.246918271999e+04 
       1.094588474994e-02       2.256065849160e+04 
       1.107429322119e-02       2.264946563460e+04 
       1.120274154275e-02       2.273563044508e+04 
       1.133122921394e-02       2.281917874022e+04 
       1.145975577640e-02       2.290012948320e+04 
       1.158832081229e-02       2.297853961300e+04 
       1.171692394261e-02       2.305439334907e+04 
       1.184556482572e-02       2.312778814564e+04 
       1.197424315583e-02       2.319871143667e+04 
       1.210295866171e-02       2.326717041479e+04 
       1.223171110544e-02       2.333323688941e+04 
       1.236050028124e-02       2.339693189740e+04 
       1.248932601440e-02       2.345828133487e+04 
       1.261818816033e-02       2.351728979712e+04 
       1.274708660356e-02       2.357401644011e+04 
       1.287602125695e-02       2.362846656501e+04 
       1.300499206084e-02       2.368068134930e+04 
       1.313399898236e-02       2.373069202804e+04 
       1.326304201474e-02       2.377851491877e+04 
       1.339212117666e-02       2.382418689374e+04 
       1.352123651170e-02       2.386771361443e+04 
       1.365038808780e-02       2.390914895810e+04 
       1.377957599677e-02       2.394849217488e+04 
       1.390880035384e-02       2.398577603657e+04 
       1.403806129729e-02       2.402103814693e+04 
       1.416735898803e-02       2.405430186965e+04 
       1.429669360931e-02       2.408559343880e+04 
       1.442606536638e-02       2.411490181368e+04 
       1.455547448629e-02       2.414229126539e+04 
       1.468492121757e-02       2.416777976795e+04 
       1.481440583012e-02       2.419140978261e+04 
       1.494392861493e-02       2.421315330312e+04 
       1.507348988403e-02       2.423307487134e+04 
       1.520308997027e-02       2.425118899863e+04 
       1.533272922732e-02       2.426753443094e+04 
       1.546240802948e-02       2.428211428739e+04 
       1.559212677176e-02       2.429495642148e+04 
       1.572188586971e-02       2.430609235323e+04 
       1.585168575954e-02       2.431554469720e+04 
       1.598152689804e-02       2.432330080733e+04 
       1.611140976265e-02       2.432943460925e+04 
       1.624133485152e-02       2.433392115399e+04 
       1.637130268356e-02       2.433679870334e+04 
       1.650131379857e-02       2.433812406865e+04 
       1.663136875729e-02       2.433787971380e+04 
       1.676146814158e-02       2.433608564525e+04 
       1.689161255454e-02       2.433275670352e+04 
       1.702180262069e-02       2.432799229475e+04 
       1.715203898614e-02       2.432172399893e+04 
       1.728232231878e-02       2.431397549240e+04 
       1.741265330851e-02       2.430485096453e+04 
       1.754303266748e-02       2.429427848098e+04 
       1.767346113031e-02       2.428229351361e+04 
       1.780393945437e-02       2.426894838310e+04 
       1.793446842009e-02       2.425430983476e+04 
       1.806504883119e-02       2.423829485687e+04 
       1.819568151507e-02       2.422096757840e+04 
       1.832636732311e-02       2.420234877117e+04 
       1.845710713099e-02       2.418248460059e+04 
       1.858790183911e-02       2.416133832884e+04 
       1.871875237294e-02       2.413898413466e+04 
       1.884965968342e-02       2.411539163171e+04 
       1.898062474738e-02       2.409062648571e+04 
       1.911164856799e-02       2.406465750060e+04 
       1.924273217518e-02       2.403753776668e+04 
       1.937387662614e-02       2.400925870493e+04 
       1.950508300578e-02       2.397993064581e+04 
       1.963635242727e-02       2.394945242959e+04 
       1.976768603252e-02       2.391788298857e+04 
       1.989908499278e-02       2.388522244653e+04 
       2.003055050913e-02       2.385158982522e+04 
       2.016208381313e-02       2.381683496503e+04 
       2.029368616739e-02       2.378109937319e+04 
       2.042535886620e-02       2.374441553930e+04 
       2.055710323616e-02       2.370671646403e+04 
       2.068892063687e-02       2.366807242756e+04 
       2.082081246158e-02       2.362838856476e+04 
       2.095278013797e-02       2.358790327596e+04 
       2.108482512878e-02       2.354646361369e+04 
       2.121694893267e-02       2.350410825459e+04 
       2.134915308491e-02       2.346085953967e+04 
       2.148143915828e-02       2.341676673433e+04 
       2.161380876379e-02       2.337182931450e+04 
       2.174626355164e-02       2.332607742792e+04 
       2.187880521204e-02       2.327948369292e+04 
       2.201143547614e-02       2.323209804925e+04 
       2.214415611699e-02       2.318393487567e+04 
       2.227696895047e-02       2.313501774112e+04 
       2.240987583631e-02       2.308529354197e+04 
       2.254287867916e-02       2.303487948793e+04 
       2.267597942956e-02       2.298375763324e+04 
       2.280918008515e-02       2.293182547044e+04 
       2.294248269170e-02       2.287928890581e+04 
       2.307588934435e-02       2.282607509157e+04 
       2.320940218876e-02       2.277213413719e+04 
       2.334302342241e-02       2.271762284355e+04 
       2.347675529581e-02       2.266245155129e+04 
       2.361060011387e-02       2.260657308942e+04 
       2.374456023726e-02       2.255017030972e+04 
       2.387863808380e-02       2.249316813327e+04 
       2.401283612989e-02       2.243553901052e+04 
       2.414715691206e-02       2.237740547295e+04 
       2.428160302848e-02       2.231867670503e+04 
       2.441617714055e-02       2.225937405266e+04 
       2.455088197457e-02       2.219955142458e+04 
       2.468572032343e-02       2.213925069207e+04 
       2.482069504834e-02       2.207841249881e+04 
       2.495580908068e-02       2.201711886662e+04 
       2.509106542386e-02       2.195530999007e+04 
       2.522646715523e-02       2.189315270912e+04 
       2.536201742813e-02       2.183033090512e+04 
       2.549771947389e-02       2.176719863677e+04 
       2.563357660402e-02       2.170357544762e+04 
       2.576959221239e-02       2.163958938071e+04 
       2.590576977752e-02       2.157512234774e+04 
       2.604211286494e-02       2.151029925322e+04 
       2.617862512961e-02       2.144517495857e+04 
       2.631531031849e-02       2.137957794796e+04 
       2.645217227310e-02       2.131361636937e+04 
       2.658921493227e-02       2.124734360276e+04 
       2.672644233492e-02       2.118074672185e+04 
       2.686385862295e-02       2.111376737810e+04 
       2.700146804427e-02       2.104644998429e+04 
       2.713927495589e-02       2.097880672813e+04 
       2.727728382713e-02       2.091095731172e+04 
       2.741549924302e-02       2.084279243478e+04 
       2.755392590767e-02       2.077433367119e+04 
       2.769256864796e-02       2.070557349772e+04 
       2.783143241720e-02       2.063660256625e+04 
       2.797052229901e-02       2.056735478372e+04 
       2.810984351135e-02       2.049789527539e+04 
       2.824940141065e-02       2.042810005235e+04 
       2.838920149616e-02       2.035818535021e+04 
       2.852924941443e-02       2.028802751573e+04 
       2.866955096396e-02       2.021767296444e+04 
       2.881011210009e-02       2.014705639418e+04 
       2.895093893998e-02       2.007633476684e+04 
       2.909203776787e-02       2.000533908232e+04 
       2.923341504057e-02       1.993421077130e+04 
       2.937507739306e-02       1.986292547138e+04 
       2.951703164444e-02       1.979154118605e+04 
       2.965928480405e-02       1.971991596886e+04 
       2.980184407788e-02       1.964819199061e+04 
       2.994471687524e-02       1.957626510835e+04 
       3.008791081566e-02       1.950430635951e+04 
       3.023143373620e-02       1.943216874334e+04 
       3.037529369895e-02       1.935991819182e+04 
       3.051949899891e-02       1.928758049727e+04 
       3.066405817224e-02       1.921513692268e+04 
       3.080898000482e-02       1.914258830391e+04 
       3.095427354121e-02       1.906994149708e+04 
       3.109994809404e-02       1.899725972832e+04 
       3.124601325376e-02       1.892442272113e+04 
       3.139247889891e-02       1.885162626547e+04 
       3.153935520678e-02       1.877873003673e+04 
       3.168665266466e-02       1.870562126663e+04 
       3.183438208154e-02       1.863265835920e+04 
       3.198255460039e-02       1.855958155823e+04 
       3.213118171104e-02       1.848646734085e+04 
       3.228027526365e-02       1.841327396565e+04 
       3.242984748286e-02       1.834009672905e+04 
       3.257991098265e-02       1.826686610667e+04 
       3.273047878189e-02       1.819356314724e+04 
       3.288156432070e-02       1.812028435102e+04 
       3.303318147766e-02       1.804709314672e+04 
       3.318534458785e-02       1.797381784731e+04 
       3.333806846184e-02       1.790050848890e+04 
       3.349136840573e-02       1.782717649767e+04 
       3.364526024212e-02       1.775388362915e+04 
       3.379976033236e-02       1.768049633944e+04 
       3.395488559984e-02       1.760728892066e+04 
       3.411065355467e-02       1.753400477972e+04 
       3.426708231965e-02       1.746064808972e+04 
       3.442419065770e-02       1.738747488267e+04 
       3.458199800085e-02       1.731423228124e+04 
       3.474052448089e-02       1.724094626363e+04 
       3.489979096171e-02       1.716779890952e+04 
       3.505981907362e-02       1.709463675955e+04 
       3.522063124963e-02       1.702157424119e+04 
       3.538225076389e-02       1.694835965988e+04 
       3.554470177248e-02       1.687528523867e+04 
       3.570800935669e-02       1.680224868671e+04 
       3.587219956887e-02       1.672921440026e+04 
       3.603729948132e-02       1.665627452372e+04 
       3.620333723810e-02       1.658331754376e+04 
       3.637034211025e-02       1.651043740537e+04 
       3.653834455459e-02       1.643751398372e+04 
       3.670737627633e-02       1.636466210048e+04 
       3.687747029586e-02       1.629192426459e+04 
       3.704866102009e-02       1.621912543909e+04 
       3.722098431856e-02       1.614645873035e+04 
       3.739447760491e-02       1.607373201177e+04 
       3.756917992399e-02       1.600110186796e+04 
       3.774513204519e-02       1.592849529657e+04 
       3.792237656249e-02       1.585588479288e+04 
       3.810095800180e-02       1.578336349946e+04 
       3.828092293626e-02       1.571083360200e+04 
       3.846232011021e-02       1.563832166520e+04 
       3.864520057258e-02       1.556582316646e+04 
       3.882961782066e-02       1.549340170066e+04 
       3.901562795506e-02       1.542099997636e+04 
       3.920328984712e-02       1.534857203200e+04 
       3.939266531979e-02       1.527621386265e+04 
       3.958381934344e-02       1.520383785789e+04 
       3.977682024797e-02       1.513143910686e+04 
       3.997173995290e-02       1.505912726174e+04 
       4.016865421740e-02       1.498670729632e+04 
       4.036764291207e-02       1.491434815962e+04 
       4.056879031512e-02       1.484198880064e+04 
       4.077218543523e-02       1.476957469385e+04 
       4.097792236430e-02       1.469711264709e+04 
       4.118610066322e-02       1.462467496729e+04 
       4.139682578454e-02       1.455217576027e+04 
       4.161020953620e-02       1.447957576586e+04 
       4.182637059119e-02       1.440700484727e+04 
       4.204543504866e-02       1.433433909150e+04 
       4.226753705272e-02       1.426156608091e+04 
       4.249281947603e-02       1.418875185261e+04 
       4.272143467661e-02       1.411583179550e+04 
       4.295354533697e-02       1.404278384266e+04 
       4.318932539681e-02       1.396969909085e+04 
       4.342896109149e-02       1.389640522028e+04 
       4.367265211106e-02       1.382300273748e+04 
       4.392061289659e-02       1.374942944219e+04 
       4.417307409343e-02       1.367564438777e+04 
       4.443028418450e-02       1.360169621089e+04 
       4.469251133027e-02       1.352753951310e+04 
       4.496004544722e-02       1.345313784259e+04 
       4.523320056197e-02       1.337847934560e+04 
       4.551231748508e-02       1.330356060862e+04 
       4.579776685704e-02       1.322832882193e+04 
       4.608995262869e-02       1.315269495224e+04 
       4.638931605072e-02       1.307685367470e+04 
       4.669634026190e-02       1.300052932708e+04 
       4.701155558404e-02       1.292376983625e+04 
       4.733554565438e-02       1.284652045764e+04 
       4.766895455449e-02       1.276881550782e+04 
       4.801249512951e-02       1.269050862388e+04 
       4.836695873583e-02       1.261161628715e+04 
       4.873322670993e-02       1.253203200690e+04 
       4.911228392071e-02       1.245168242435e+04 
       4.950523485518e-02       1.237062218640e+04 
       4.991332279863e-02       1.228860422178e+04 
       5.033795281197e-02       1.220561173244e+04 
       5.078071938885e-02       1.212153461658e+04 
       5.124343990559e-02       1.203625142581e+04 
       5.172819526879e-02       1.194961531701e+04 
       5.223737953680e-02       1.186144977821e+04 
       5.277376075656e-02       1.177156702602e+04 
       5.334055583301e-02       1.167978349696e+04 
       5.394152293925e-02       1.158573495928e+04 
       5.458107576241e-02       1.148907742546e+04 
       5.526442468460e-02       1.138951009343e+04 
       5.599775061605e-02       1.128643818905e+04 
       5.678841716980e-02       1.117910612703e+04 
       5.764522523569e-02       1.106681560230e+04 
       5.857870888210e-02       1.094841797243e+04 
       5.960145934209e-02       1.082231460856e+04 
